Time,Velocity,Setpoint
0.0,5.429899215698318,10.0
0.016666666666666666,5.429889202118002,10.0
0.03333333333333333,5.429995536804314,10.0
0.05,5.431563377380505,10.0
0.06666666666666667,5.436286926269783,10.0
0.08333333333333333,5.445583343506036,10.0
0.1,5.45950603485128,10.0
0.11666666666666667,5.477718353271707,10.0
0.13333333333333333,5.498836517334238,10.0
0.15,5.509703636169541,10.0
0.16666666666666666,5.507664680481035,10.0
0.18333333333333332,5.505929946899578,10.0
0.2,5.505428314209223,10.0
0.21666666666666667,5.504519462585535,10.0
0.23333333333333334,5.503786563873584,10.0
0.25,5.5029888153079165,10.0
0.26666666666666666,5.50222158432025,10.0
0.2833333333333333,5.501445293426646,10.0
0.3,5.500674724578932,10.0
0.31666666666666665,5.499904632568502,10.0
0.3333333333333333,5.499136447906527,10.0
0.35,5.49836587905895,10.0
0.36666666666666664,5.497597694397061,10.0
0.38333333333333336,5.496829509735156,10.0
0.4,5.496060848236158,10.0
0.4166666666666667,5.495292663574304,10.0
0.43333333333333335,5.4945249557496325,10.0
0.45,5.4937582015992374,10.0
0.4666666666666667,5.492990016937603,10.0
0.48333333333333334,5.492222785950016,10.0
0.5,5.491455078125109,10.0
0.5166666666666667,5.490686416625993,10.0
0.5333333333333333,5.4899191856386125,10.0
0.55,5.489151477813833,10.0
0.5666666666666667,5.48838472366343,10.0
0.5833333333333334,5.487616062164338,10.0
0.6,5.486848831176836,10.0
0.6166666666666667,5.486081600189336,10.0
0.6333333333333333,5.4853148460388805,10.0
0.65,5.508048057556318,10.0
0.6666666666666666,5.642764568329098,10.0
0.6833333333333333,5.68414592742924,10.0
0.7,5.777395725250402,10.0
0.7166666666666667,5.832376480102651,10.0
0.7333333333333333,5.90753030776991,10.0
0.75,5.967260837555056,10.0
0.7666666666666667,6.0337100028992285,10.0
0.7833333333333333,6.094151973724556,10.0
0.8,6.156183242797951,10.0
0.8166666666666667,6.2158246040349,10.0
0.8333333333333334,6.275404453278213,10.0
0.85,6.333880424499967,10.0
0.8666666666666667,6.391913414001644,10.0
0.8833333333333333,6.449306011199994,10.0
0.9,6.5062460899363925,10.0
0.9166666666666666,6.56273889541814,10.0
0.9333333333333333,6.618856430054972,10.0
0.95,6.674626350403873,10.0
0.9666666666666667,6.730094909668651,10.0
0.9833333333333333,6.785291671753475,10.0
1.0,6.840242385864856,10.0
1.0166666666666666,6.894972801209205,10.0
1.0333333333333334,6.949502944946924,10.0
1.05,7.003852844238875,10.0
1.0666666666666667,7.0580377578739215,10.0
1.0833333333333333,7.112069606781453,10.0
1.1,7.165963172913142,10.0
1.1166666666666667,7.219725608826104,10.0
1.1333333333333333,7.273370742798261,10.0
1.15,7.326901912689581,10.0
1.1666666666666667,7.380327701569067,10.0
1.1833333333333333,7.433645248413426,10.0
1.2,7.486852169037214,10.0
1.2166666666666666,7.539941787720025,10.0
1.2333333333333334,7.5929136276250055,10.0
1.25,7.645761013031414,10.0
1.2666666666666666,7.698485374450948,10.0
1.2833333333333334,7.751083374023832,10.0
1.3,7.803552627563853,10.0
1.3166666666666667,7.855892658233964,10.0
1.3333333333333333,7.9081015586856305,10.0
1.35,7.960180282593366,10.0
1.3666666666666667,8.012125968933299,10.0
1.3833333333333333,8.06393814086943,10.0
1.4,8.115617752075476,10.0
1.4166666666666667,8.167163848877223,10.0
1.4333333333333333,8.218575477600531,10.0
1.45,8.269855499268054,10.0
1.4666666666666666,8.321001052856834,10.0
1.4833333333333334,8.372014999390064,10.0
1.5,8.422895431518953,10.0
1.5166666666666666,8.473644256592156,10.0
1.5333333333333334,8.524261474609695,10.0
1.55,8.574748039245877,10.0
1.5666666666666667,8.625104904175029,10.0
1.5833333333333333,8.675333976745948,10.0
1.6,8.725434303283956,10.0
1.6166666666666667,8.775408744812289,10.0
1.6333333333333333,8.825260162353688,10.0
1.65,8.87498855590843,10.0
1.6666666666666667,8.924595832825023,10.0
1.6833333333333333,8.974084854126195,10.0
1.7,9.02345848083517,10.0
1.7166666666666666,9.072720527649063,10.0
1.7333333333333334,9.121873855591028,10.0
1.75,9.17092323303243,10.0
1.7666666666666666,9.219874382019356,10.0
1.7833333333333334,9.268636703491401,10.0
1.8,9.317161560058834,10.0
1.8166666666666667,9.365467071533436,10.0
1.8333333333333333,9.413565635681469,10.0
1.85,9.461401939392369,10.0
1.8666666666666667,9.508992195129595,10.0
1.8833333333333333,9.55635261535668,10.0
1.9,9.603497505188198,10.0
1.9166666666666667,9.65043830871612,10.0
1.9333333333333333,9.697186470031864,10.0
1.95,9.743750572204789,10.0
1.9666666666666666,9.790138244629036,10.0
1.9833333333333334,9.83635616302509,10.0
2.0,9.881712913513361,10.0
2.0166666666666666,9.923175811767754,10.0
2.033333333333333,9.957263946533397,10.0
2.05,9.981377601623633,10.0
2.066666666666667,9.994177818298667,10.0
2.0833333333333335,9.99580764770543,10.0
2.1,9.98749351501497,10.0
2.1166666666666667,9.971084594726847,10.0
2.1333333333333333,9.94875144958522,10.0
2.15,9.92264175415084,10.0
2.1666666666666665,9.894925117492976,10.0
2.183333333333333,9.867719650268974,10.0
2.2,9.84296512603812,10.0
2.216666666666667,9.822318077087942,10.0
2.2333333333333334,9.80707263946581,10.0
2.25,9.798114776611591,10.0
2.2666666666666666,9.795739173889586,10.0
2.283333333333333,9.799677848816238,10.0
2.3,9.80918693542526,10.0
2.316666666666667,9.823117256165004,10.0
2.3333333333333335,9.839963912964517,10.0
2.35,9.858076095581461,10.0
2.3666666666666667,9.875806808472175,10.0
2.3833333333333333,9.89169311523486,10.0
2.4,9.904575347900868,10.0
2.4166666666666665,9.913682937622617,10.0
2.433333333333333,9.918654441834033,10.0
2.45,9.919514656067319,10.0
2.466666666666667,9.916622161865602,10.0
2.4833333333333334,9.910595893860373,10.0
2.5,9.902233123779629,10.0
2.5166666666666666,9.892416954040872,10.0
2.533333333333333,9.882046699524233,10.0
2.55,9.871970176697088,10.0
2.566666666666667,9.862932205200593,10.0
2.5833333333333335,9.855529785156738,10.0
2.6,9.850188255310359,10.0
2.6166666666666667,9.847141265869613,10.0
2.6333333333333333,9.846429824829494,10.0
2.65,9.84791278839138,10.0
2.6666666666666665,9.851288795471445,10.0
2.683333333333333,9.856126785278594,10.0
2.7,9.861914634704961,10.0
2.716666666666667,9.868100166321081,10.0
2.7333333333333334,9.874143600464206,10.0
2.75,9.879567146301543,10.0
2.7666666666666666,9.883990287781165,10.0
2.783333333333333,9.887149810791419,10.0
2.8,9.88891124725373,10.0
2.816666666666667,9.889268875122328,10.0
2.8333333333333335,9.888330459595213,10.0
2.85,9.886295318603818,10.0
2.8666666666666667,9.883429527283203,10.0
2.8833333333333333,9.880038261413814,10.0
2.9,9.876437187195059,10.0
2.9166666666666665,9.872926712036334,10.0
2.933333333333333,9.869773864746318,10.0
2.95,9.86719322204615,10.0
2.966666666666667,9.865334510803415,10.0
2.9833333333333334,9.86427974700954,10.0
3.0,9.86403942108181,10.0
3.0166666666666666,9.864560127258509,10.0
3.033333333333333,9.865732192993411,10.0
3.05,9.867404937744297,10.0
3.066666666666667,9.869398117065625,10.0
3.0833333333333335,9.871526718139785,10.0
3.1,9.873605728149565,10.0
3.1166666666666667,9.875474929809736,10.0
3.1333333333333333,9.877002716064581,10.0
3.15,9.878101348877077,10.0
3.1666666666666665,9.878721237182765,10.0
3.183333333333333,9.878857612609988,10.0
3.2,9.878546714782852,10.0
3.216666666666667,9.877853393554831,10.0
3.2333333333333334,9.87686920166037,10.0
3.25,9.875699043274075,10.0
3.2666666666666666,9.874451637268178,10.0
3.283333333333333,9.873233795166119,10.0
3.3,9.87213802337657,10.0
3.316666666666667,9.871240615844828,10.0
3.3333333333333335,9.870593070984016,10.0
3.35,9.87022399902356,10.0
3.3666666666666667,9.87013816833506,10.0
3.3833333333333333,9.870315551757953,10.0
3.4,9.870718955993793,10.0
3.4166666666666665,9.871294975280872,10.0
3.433333333333333,9.871982574463024,10.0
3.45,9.872717857360934,10.0
3.466666666666667,9.873435974121197,10.0
3.4833333333333334,9.874082565307694,10.0
3.5,9.874613761901943,10.0
3.5166666666666666,9.874997138977138,10.0
3.533333333333333,9.875214576721287,10.0
3.55,9.875266075134352,10.0
3.566666666666667,9.875161170959549,10.0
3.5833333333333335,9.87492465972908,10.0
3.6,9.87458610534675,10.0
3.6166666666666667,9.874181747436593,10.0
3.6333333333333333,9.873750686645584,10.0
3.65,9.873328208923413,10.0
3.6666666666666665,9.872947692871158,10.0
3.683333333333333,9.872634887695382,10.0
3.7,9.872408866882388,10.0
3.716666666666667,9.87227916717536,10.0
3.7333333333333334,9.872248649597225,10.0
3.75,9.872307777404849,10.0
3.7666666666666666,9.872446060180726,10.0
3.783333333333333,9.872644424438546,10.0
3.8,9.872881889343311,10.0
3.816666666666667,9.873135566711477,10.0
3.8333333333333335,9.873384475708095,10.0
3.85,9.873609542846776,10.0
3.8666666666666667,9.873794555664112,10.0
3.8833333333333333,9.873928070068393,10.0
3.9,9.874005317688015,10.0
3.9166666666666665,9.874023437500028,10.0
3.933333333333333,9.873988151550337,10.0
3.95,9.87390708923344,10.0
3.966666666666667,9.873790740966825,10.0
3.9833333333333334,9.873650550842342,10.0
4.0,9.873501777648999,10.0
4.016666666666667,9.873355865478564,10.0
4.033333333333333,9.873223304748564,10.0
4.05,9.873114585876483,10.0
4.066666666666666,9.873035430908217,10.0
4.083333333333333,9.872990608215403,10.0
4.1,9.872979164123555,10.0
4.116666666666666,9.8729982376099,10.0
4.133333333333334,9.873045921325696,10.0
4.15,9.873114585876511,10.0
4.166666666666667,9.873196601867685,10.0
4.183333333333334,9.873284339904815,10.0
4.2,9.873370170593297,10.0
4.216666666666667,9.873448371887223,10.0
4.233333333333333,9.873512268066415,10.0
4.25,9.87355899810792,10.0
4.266666666666667,9.873585700988778,10.0
4.283333333333333,9.873592376708991,10.0
4.3,9.873580932617193,10.0
4.316666666666666,9.873552322387699,10.0
4.333333333333333,9.873513221740726,10.0
4.35,9.873464584350632,10.0
4.366666666666666,9.873413085937525,10.0
4.383333333333334,9.873363494873052,10.0
4.4,9.873317718505866,10.0
4.416666666666667,9.873279571533216,10.0
4.433333333333334,9.87325191497804,10.0
4.45,9.873236656188967,10.0
4.466666666666667,9.873231887817393,10.0
4.483333333333333,9.873238563537598,10.0
4.5,9.873254776000978,10.0
4.516666666666667,9.87327861785889,10.0
4.533333333333333,9.873306274414066,10.0
4.55,9.873336791992203,10.0
4.566666666666666,9.87336730957032,10.0
4.583333333333333,9.873394966125494,10.0
4.6,9.873416900634767,10.0
4.616666666666666,9.873433113098148,10.0
4.633333333333334,9.873441696167026,10.0
4.65,9.873443603515662,10.0
4.666666666666667,9.873439788818368,10.0
4.683333333333334,9.873430252075206,10.0
4.7,9.873415946960497,10.0
4.716666666666667,9.873399734497122,10.0
4.733333333333333,9.873381614685115,10.0
4.75,9.873364448547367,10.0
4.766666666666667,9.873349189758306,10.0
4.783333333333333,9.873335838317878,10.0
4.8,9.87332725524903,10.0
4.816666666666666,9.873321533203134,10.0
4.833333333333333,9.873319625854501,10.0
4.85,9.873321533203136,10.0
4.866666666666666,9.873327255249038,10.0
4.883333333333334,9.873334884643562,10.0
4.9,9.87334442138673,10.0
4.916666666666667,9.87335491180421,10.0
4.933333333333334,9.87336540222169,10.0
4.95,9.87337398529054,10.0
4.966666666666667,9.873382568359395,10.0
4.983333333333333,9.873388290405293,10.0
5.0,9.873391151428244,10.0
5.016666666666667,9.873393058776871,10.0
5.033333333333333,9.87339115142824,10.0
5.05,9.87338924407961,10.0
5.066666666666666,9.87338447570803,10.0
5.083333333333333,9.873378753662125,10.0
5.1,9.873373031616234,10.0
5.116666666666666,9.873366355896023,10.0
5.133333333333334,9.87336063385012,10.0
5.15,9.87335586547854,10.0
5.166666666666667,9.873352050781273,10.0
5.183333333333334,9.87335014343265,10.0
5.2,9.873349189758335,10.0
5.216666666666667,9.873349189758338,10.0
5.233333333333333,9.87335014343266,10.0
5.25,9.873353004455613,10.0
5.266666666666667,9.873356819152868,10.0
5.283333333333333,9.873360633850151,10.0
5.3,9.873364448547408,10.0
5.316666666666666,9.873368263244675,10.0
5.333333333333333,9.87337112426762,10.0
5.35,9.873373985290577,10.0
5.366666666666666,9.873374938964897,10.0
5.383333333333334,9.873375892639219,10.0
5.4,9.873375892639224,10.0
5.416666666666667,9.873373985290588,10.0
5.433333333333334,9.873373031616282,10.0
5.45,9.873371124267662,10.0
5.466666666666667,9.87336826324472,10.0
5.483333333333333,9.873365402221744,10.0
5.5,9.87336349487311,10.0
5.516666666666667,9.873361587524478,10.0
5.533333333333333,9.873360633850169,10.0
5.55,9.873358726501538,10.0
5.566666666666666,9.873358726501575,10.0
5.583333333333333,9.87335872650156,10.0
5.6,9.87336063385022,10.0
5.616666666666666,9.873361587524514,10.0
5.633333333333334,9.873362541198869,10.0
5.65,9.873364448547491,10.0
5.666666666666667,9.873365402221797,10.0
5.683333333333334,9.8733663558961,10.0
5.7,9.873367309570419,10.0
5.716666666666667,9.873369216919055,10.0
5.733333333333333,9.873369216919079,10.0
5.75,9.87336921691906,10.0
5.766666666666667,9.873369216919066,10.0
5.783333333333333,9.873369216919073,10.0
5.8,9.873367309570448,10.0
5.816666666666666,9.873366355896138,10.0
5.833333333333333,9.873365402221856,10.0
5.85,9.87336444854755,10.0
5.866666666666666,9.87336444854756,10.0
5.883333333333334,9.87336444854751,10.0
5.9,9.873364448547534,10.0
5.916666666666667,9.8733644485475,10.0
5.933333333333334,9.873364448547502,10.0
5.95,9.873364448547504,10.0
5.966666666666667,9.873364448547525,10.0
5.983333333333333,9.87336444854756,10.0
6.0,9.873364448547571,10.0
6.016666666666667,9.873364448547582,10.0
6.033333333333333,9.87336444854757,10.0
6.05,9.873364448547553,10.0
6.066666666666666,9.87336444854758,10.0
6.083333333333333,9.873364448547571,10.0
6.1,9.873364448547566,10.0
6.116666666666666,9.87336540222189,10.0
6.133333333333334,9.873365402221896,10.0
6.15,9.873365402221864,10.0
6.166666666666667,9.873366355896213,10.0
6.183333333333334,9.873366355896248,10.0
6.2,9.873366355896259,10.0
6.216666666666667,9.87336635589627,10.0
6.233333333333333,9.873366355896284,10.0
6.25,9.873366355896296,10.0
6.266666666666667,9.873366355896312,10.0
6.283333333333333,9.873366355896303,10.0
6.3,9.873366355896266,10.0
6.316666666666666,9.87336635589627,10.0
6.333333333333333,9.87336635589625,10.0
6.35,9.87336635589626,10.0
6.366666666666666,9.873365402221983,10.0
6.383333333333334,9.873365402222033,10.0
6.4,9.873365402222014,10.0
6.416666666666667,9.87336540222199,10.0
6.433333333333334,9.873365402222028,10.0
6.45,9.87336540222203,10.0
6.466666666666667,9.873365402222069,10.0
6.483333333333333,9.873365402222127,10.0
6.5,9.87336540222206,10.0
6.516666666666667,9.873365402222069,10.0
6.533333333333333,9.873365402221996,10.0
6.55,9.873365402222008,10.0
6.566666666666666,9.87336540222202,10.0
6.583333333333333,9.873365402222115,10.0
6.6,9.873365402222051,10.0
6.616666666666666,9.873365402221985,10.0
6.633333333333334,9.873365402222003,10.0
6.65,9.873365402222001,10.0
6.666666666666667,9.873365402222047,10.0
6.683333333333334,9.873365402222046,10.0
6.7,9.87336540222198,10.0
6.716666666666667,9.873365402221976,10.0
6.733333333333333,9.873365402221973,10.0
6.75,9.87336540222199,10.0
6.766666666666667,9.873365402221987,10.0
6.783333333333333,9.873365402222001,10.0
6.8,9.87336540222201,10.0
6.816666666666666,9.873365402222037,10.0
6.833333333333333,9.873365402222046,10.0
6.85,9.873365402222083,10.0
6.866666666666666,9.87336540222209,10.0
6.883333333333334,9.873365402222106,10.0
6.9,9.87336540222207,10.0
6.916666666666667,9.873365402222094,10.0
6.933333333333334,9.873365402222067,10.0
6.95,9.873365402222122,10.0
6.966666666666667,9.873365402222094,10.0
6.983333333333333,9.873365402222163,10.0
7.0,9.873365402222142,10.0
7.016666666666667,9.873365402222221,10.0
7.033333333333333,9.873365402222264,10.0
7.05,9.873365402222278,10.0
7.066666666666666,9.873365402222326,10.0
7.083333333333333,9.873365402222376,10.0
7.1,9.873365402222252,10.0
7.116666666666666,9.873365402222195,10.0
7.133333333333334,9.873365402222294,10.0
7.15,9.873365402222328,10.0
7.166666666666667,9.87336540222234,10.0
7.183333333333334,9.873365402222282,10.0
7.2,9.873365402222408,10.0
7.216666666666667,9.873365402222456,10.0
7.233333333333333,9.873365402222385,10.0
7.25,9.873365402222529,10.0
7.266666666666667,9.873365402222298,10.0
7.283333333333333,9.873365402222364,10.0
7.3,9.873365402222221,10.0
7.316666666666666,9.873365402222253,10.0
7.333333333333333,9.873366355896577,10.0
7.35,9.873366355896534,10.0
7.366666666666666,9.873366355896554,10.0
7.383333333333334,9.87336635589655,10.0
7.4,9.873366355896634,10.0
7.416666666666667,9.873366355896612,10.0
7.433333333333334,9.873366355896636,10.0
7.45,9.873366355896687,10.0
7.466666666666667,9.873366355896662,10.0
7.483333333333333,9.873366355896787,10.0
7.5,9.873365402222426,10.0
7.516666666666667,9.873365402222294,10.0
7.533333333333333,9.873365402222268,10.0
7.55,9.87336540222229,10.0
7.566666666666666,9.873365402222314,10.0
7.583333333333333,9.8733654022223,10.0
7.6,9.873365402222333,10.0
7.616666666666666,9.873365402222365,10.0
7.633333333333334,9.87336540222236,10.0
7.65,9.873365402222491,10.0
7.666666666666667,9.873365402222426,10.0
7.683333333333334,9.873365402222477,10.0
7.7,9.873365402222484,10.0
7.716666666666667,9.873365402222369,10.0
7.733333333333333,9.873365402222351,10.0
7.75,9.873365402222365,10.0
7.766666666666667,9.873365402222472,10.0
7.783333333333333,9.873365402222442,10.0
7.8,9.87336540222246,10.0
7.816666666666666,9.873365402222479,10.0
7.833333333333333,9.873365402222483,10.0
7.85,9.873365402222516,10.0
7.866666666666666,9.873365402222571,10.0
7.883333333333334,9.873365402222586,10.0
7.9,9.873365402222722,10.0
7.916666666666667,9.873365402222454,10.0
7.933333333333334,9.873365402222447,10.0
7.95,9.873365402222435,10.0
7.966666666666667,9.87336540222245,10.0
7.983333333333333,9.87336540222249,10.0
8.0,9.873365402222499,10.0
8.016666666666667,9.873365402222541,10.0
8.033333333333333,9.87336540222255,10.0
8.05,9.873365402222586,10.0
8.066666666666666,9.873365402222639,10.0
8.083333333333334,9.873365402222696,10.0
8.1,9.873365402222715,10.0
8.116666666666667,9.873365402222493,10.0
8.133333333333333,9.87336540222249,10.0
8.15,9.873365402222532,10.0
8.166666666666666,9.873365402222538,10.0
8.183333333333334,9.873365402222536,10.0
8.2,9.873365402222568,10.0
8.216666666666667,9.873365402222582,10.0
8.233333333333333,9.873365402222616,10.0
8.25,9.873365402222666,10.0
8.266666666666667,9.873365402222722,10.0
8.283333333333333,9.873365402222747,10.0
8.3,9.873365402222797,10.0
8.316666666666666,9.873365402222607,10.0
8.333333333333334,9.873365402222602,10.0
8.35,9.87336540222262,10.0
8.366666666666667,9.873365402222642,10.0
8.383333333333333,9.873365402222671,10.0
8.4,9.873365402222726,10.0
8.416666666666666,9.873365402222781,10.0
8.433333333333334,9.873365402222797,10.0
8.45,9.87336540222283,10.0
8.466666666666667,9.873365402222884,10.0
8.483333333333333,9.873365402223527,10.0
8.5,9.873365402224419,10.0
8.516666666666667,9.873365402225522,10.0
8.533333333333333,9.873365402227483,10.0
8.55,9.873365402230457,10.0
8.566666666666666,9.873365402221939,10.0
8.583333333333334,9.873365402221987,10.0
8.6,9.87336540222203,10.0
8.616666666666667,9.873365402222076,10.0
8.633333333333333,9.873365402222117,10.0
8.65,9.873365402222156,10.0
8.666666666666666,9.873365402222198,10.0
8.683333333333334,9.873365402222245,10.0
8.7,9.873365402222298,10.0
8.716666666666667,9.873365402222134,10.0
8.733333333333333,9.873365402222133,10.0
8.75,9.87336540222202,10.0
8.766666666666667,9.873365402222033,10.0
8.783333333333333,9.873365402222051,10.0
8.8,9.87336540222207,10.0
8.816666666666666,9.873365402222094,10.0
8.833333333333334,9.873365402222104,10.0
8.85,9.873365402222134,10.0
8.866666666666667,9.873365402222165,10.0
8.883333333333333,9.87336540222219,10.0
8.9,9.873365402222234,10.0
8.916666666666666,9.873365402222264,10.0
8.933333333333334,9.873365402222065,10.0
8.95,9.87336540222207,10.0
8.966666666666667,9.873365402222069,10.0
8.983333333333333,9.873365402222085,10.0
9.0,9.873365402222106,10.0
9.016666666666667,9.87336540222212,10.0
9.033333333333333,9.87336540222215,10.0
9.05,9.873365402222179,10.0
9.066666666666666,9.873365402222202,10.0
